Theta [deg.]  Phi   [deg.]  Abs(Dir.)[      ]   Abs(Theta)[      ]  Phase(Theta)[deg.]  Abs(Phi  )[      ]  Phase(Phi  )[deg.]  Ax.Ratio[      ]    
------------------------------------------------------------------------------------------------------------------------------------------------------
-180.000         -90.000            1.810e-02           1.745e-07              67.651           1.810e-02             195.185           3.162e+02     
-179.000         -90.000            2.245e-02           4.715e-03              72.490           1.773e-02             194.612           2.498e+00     
-178.000         -90.000            3.373e-02           1.708e-02              72.671           1.665e-02             192.825           1.738e+00     
-177.000         -90.000            4.771e-02           3.272e-02              72.988           1.499e-02             189.726           1.880e+00     
-176.000         -90.000            5.907e-02           4.611e-02              73.509           1.296e-02             185.139           2.130e+00     
-175.000         -90.000            6.333e-02           5.254e-02              74.348           1.079e-02             178.798           2.314e+00     
-174.000         -90.000            5.852e-02           4.979e-02              75.728           8.733e-03             170.343           2.399e+00     
-173.000         -90.000            4.591e-02           3.893e-02              78.125           6.982e-03             159.369           2.401e+00     
-172.000         -90.000            2.958e-02           2.390e-02              82.765           5.686e-03             145.632           2.442e+00     
-171.000         -90.000            1.511e-02           1.020e-02              93.884           4.914e-03             129.411           3.378e+00     
-170.000         -90.000            7.564e-03           2.901e-03             132.178           4.663e-03             111.824           5.739e+00     
-169.000         -90.000            9.776e-03           4.910e-03             199.954           4.865e-03              94.445           1.315e+00     
-168.000         -90.000            2.137e-02           1.596e-02             222.546           5.410e-03              78.393           3.653e+00     
-167.000         -90.000            3.886e-02           3.269e-02             230.577           6.167e-03              63.938           1.176e+01     
-166.000         -90.000            5.685e-02           4.983e-02             234.856           7.013e-03              50.803           4.300e+01     
-165.000         -90.000            6.988e-02           6.203e-02             238.015           7.851e-03              38.546           9.394e+00     
-164.000         -90.000            7.413e-02           6.551e-02             241.117           8.621e-03              26.792           5.345e+00     
-163.000         -90.000            6.878e-02           5.948e-02             244.975           9.303e-03              15.259           3.551e+00     
